C:\Users\admin\OneDrive - Kyoto University\ÉhÉLÉÖÉÅÉìÉg\experimental_data\LPSO\LPSO_2023_06_16_SP8BL40B2\s233Ua\s233sUa_00000\s233sUa_00000_00387.tif
Radial Distance (mm)
Intensity
       1149
 4.9997635E-02  1.1544730E+01
 1.4999291E-01  9.4554663E+00
 2.4998817E-01  9.5577507E+00
 3.4998345E-01  1.0029508E+01
 4.4997871E-01  1.0749237E+01
 5.4997396E-01  1.3215579E+01
 6.4996928E-01  1.8937223E+01
 7.4996454E-01  4.1630348E+01
 8.4995979E-01  1.6861278E+03
 9.4995505E-01  2.0528715E+04
 1.0499504E+00  4.6386590E+04
 1.1499456E+00  6.4780785E+04
 1.2499409E+00  5.7848469E+04
 1.3499361E+00  4.5456598E+04
 1.4499314E+00  3.6079684E+04
 1.5499266E+00  2.8700668E+04
 1.6499220E+00  2.3106436E+04
 1.7499173E+00  1.8721867E+04
 1.8499125E+00  1.5316570E+04
 1.9499078E+00  1.2679197E+04
 2.0499032E+00  1.0554361E+04
 2.1498983E+00  8.8628115E+03
 2.2498937E+00  7.4650186E+03
 2.3498888E+00  6.3058955E+03
 2.4498842E+00  5.3968291E+03
 2.5498793E+00  4.6613672E+03
 2.6498747E+00  4.0252720E+03
 2.7498698E+00  3.4923564E+03
 2.8498652E+00  3.0501633E+03
 2.9498606E+00  2.6767119E+03
 3.0498557E+00  2.3413398E+03
 3.1498511E+00  2.0572874E+03
 3.2498462E+00  1.8199523E+03
 3.3498416E+00  1.6157574E+03
 3.4498367E+00  1.4459622E+03
 3.5498321E+00  1.2966790E+03
 3.6498275E+00  1.1723131E+03
 3.7498226E+00  1.0647509E+03
 3.8498180E+00  9.6666510E+02
 3.9498131E+00  8.7838812E+02
 4.0498085E+00  7.9793774E+02
 4.1498036E+00  7.3137433E+02
 4.2497988E+00  6.7155469E+02
 4.3497944E+00  6.1788324E+02
 4.4497895E+00  5.7088330E+02
 4.5497847E+00  5.2687903E+02
 4.6497803E+00  4.8834872E+02
 4.7497754E+00  4.5571106E+02
 4.8497705E+00  4.1992462E+02
 4.9497657E+00  3.9116968E+02
 5.0497613E+00  3.6521609E+02
 5.1497564E+00  3.4316953E+02
 5.2497516E+00  3.2149066E+02
 5.3497472E+00  3.0102765E+02
 5.4497423E+00  2.8385327E+02
 5.5497375E+00  2.6741437E+02
 5.6497326E+00  2.5050143E+02
 5.7497282E+00  2.3591270E+02
 5.8497233E+00  2.2341301E+02
 5.9497185E+00  2.1225960E+02
 6.0497141E+00  2.0150940E+02
 6.1497092E+00  1.9057893E+02
 6.2497044E+00  1.8126489E+02
 6.3496995E+00  1.7255995E+02
 6.4496951E+00  1.6444919E+02
 6.5496902E+00  1.5684834E+02
 6.6496854E+00  1.4934088E+02
 6.7496805E+00  1.4312659E+02
 6.8496761E+00  1.3707919E+02
 6.9496713E+00  1.3118250E+02
 7.0496664E+00  1.2495473E+02
 7.1496620E+00  1.2027169E+02
 7.2496572E+00  1.1481435E+02
 7.3496523E+00  1.1078141E+02
 7.4496474E+00  1.0700363E+02
 7.5496430E+00  1.0306679E+02
 7.6496382E+00  9.8814819E+01
 7.7496333E+00  9.5890991E+01
 7.8496289E+00  9.2703812E+01
 7.9496241E+00  8.8816673E+01
 8.0496197E+00  8.5728539E+01
 8.1496143E+00  8.3023758E+01
 8.2496099E+00  8.0462730E+01
 8.3496046E+00  7.8379601E+01
 8.4496002E+00  7.5054123E+01
 8.5495958E+00  7.2709969E+01
 8.6495905E+00  7.0900444E+01
 8.7495861E+00  6.9228241E+01
 8.8495817E+00  6.6852371E+01
 8.9495764E+00  6.4985443E+01
 9.0495720E+00  6.2710083E+01
 9.1495676E+00  6.0784203E+01
 9.2495623E+00  5.9326920E+01
 9.3495579E+00  5.7851841E+01
 9.4495535E+00  5.6077621E+01
 9.5495481E+00  5.4351658E+01
 9.6495438E+00  5.2925472E+01
 9.7495384E+00  5.2072674E+01
 9.8495340E+00  5.0745396E+01
 9.9495296E+00  4.9546318E+01
 1.0049524E+01  4.8261677E+01
 1.0149520E+01  4.7245632E+01
 1.0249516E+01  4.6076225E+01
 1.0349510E+01  4.4909451E+01
 1.0449506E+01  4.3419884E+01
 1.0549501E+01  4.2845898E+01
 1.0649496E+01  4.2022896E+01
 1.0749492E+01  4.1182423E+01
 1.0849487E+01  4.0340733E+01
 1.0949482E+01  3.9760880E+01
 1.1049478E+01  3.8585030E+01
 1.1149472E+01  3.7435932E+01
 1.1249468E+01  3.6978905E+01
 1.1349463E+01  3.6153557E+01
 1.1449458E+01  3.5416843E+01
 1.1549454E+01  3.4758011E+01
 1.1649449E+01  3.4208057E+01
 1.1749444E+01  3.3384590E+01
 1.1849440E+01  3.2733307E+01
 1.1949435E+01  3.2157932E+01
 1.2049430E+01  3.1538729E+01
 1.2149426E+01  3.0894455E+01
 1.2249420E+01  3.0325483E+01
 1.2349416E+01  2.9979282E+01
 1.2449411E+01  2.9346813E+01
 1.2549406E+01  2.8700994E+01
 1.2649402E+01  2.8325258E+01
 1.2749397E+01  2.7976154E+01
 1.2849392E+01  2.7482290E+01
 1.2949388E+01  2.7138161E+01
 1.3049383E+01  2.6850626E+01
 1.3149378E+01  2.6261673E+01
 1.3249373E+01  2.5921938E+01
 1.3349369E+01  2.5514999E+01
 1.3449364E+01  2.4962225E+01
 1.3549359E+01  2.4703060E+01
 1.3649354E+01  2.4093191E+01
 1.3749350E+01  2.4104630E+01
 1.3849345E+01  2.4002447E+01
 1.3949340E+01  2.3298470E+01
 1.4049335E+01  2.2712257E+01
 1.4149331E+01  2.2469343E+01
 1.4249326E+01  2.2109722E+01
 1.4349321E+01  2.1935873E+01
 1.4449317E+01  2.1841379E+01
 1.4549312E+01  2.1369972E+01
 1.4649307E+01  2.1113287E+01
 1.4749302E+01  2.0788250E+01
 1.4849298E+01  2.0634541E+01
 1.4949293E+01  2.0169287E+01
 1.5049288E+01  1.9794769E+01
 1.5149283E+01  1.9666586E+01
 1.5249279E+01  1.9394346E+01
 1.5349274E+01  1.9222258E+01
 1.5449269E+01  1.9034687E+01
 1.5549265E+01  1.8760015E+01
 1.5649260E+01  1.8572008E+01
 1.5749255E+01  1.8282772E+01
 1.5849251E+01  1.7993433E+01
 1.5949245E+01  1.7887554E+01
 1.6049240E+01  1.7883465E+01
 1.6149237E+01  1.7500347E+01
 1.6249231E+01  1.7142551E+01
 1.6349226E+01  1.7052750E+01
 1.6449223E+01  1.6722754E+01
 1.6549217E+01  1.6691107E+01
 1.6649212E+01  1.6514114E+01
 1.6749208E+01  1.6600571E+01
 1.6849203E+01  1.6240120E+01
 1.6949198E+01  1.6151503E+01
 1.7049194E+01  1.5998014E+01
 1.7149189E+01  1.5827524E+01
 1.7249184E+01  1.5596927E+01
 1.7349180E+01  1.5446948E+01
 1.7449175E+01  1.5201744E+01
 1.7549170E+01  1.5106466E+01
 1.7649166E+01  1.5000655E+01
 1.7749161E+01  1.4796080E+01
 1.7849155E+01  1.4824282E+01
 1.7949150E+01  1.4647283E+01
 1.8049147E+01  1.4424124E+01
 1.8149141E+01  1.4392882E+01
 1.8249136E+01  1.4391383E+01
 1.8349133E+01  1.4058167E+01
 1.8449127E+01  1.4031921E+01
 1.8549122E+01  1.3933571E+01
 1.8649118E+01  1.3866155E+01
 1.8749113E+01  1.3679280E+01
 1.8849108E+01  1.3526655E+01
 1.8949104E+01  1.3430336E+01
 1.9049099E+01  1.3376073E+01
 1.9149094E+01  1.3227451E+01
 1.9249090E+01  1.3064095E+01
 1.9349085E+01  1.2890682E+01
 1.9449080E+01  1.2894088E+01
 1.9549076E+01  1.2763133E+01
 1.9649071E+01  1.2696159E+01
 1.9749065E+01  1.2562574E+01
 1.9849062E+01  1.2297940E+01
 1.9949057E+01  1.2208301E+01
 2.0049051E+01  1.2434925E+01
 2.0149048E+01  1.2406447E+01
 2.0249043E+01  1.2203688E+01
 2.0349037E+01  1.2063715E+01
 2.0449034E+01  1.2114378E+01
 2.0549028E+01  1.2075685E+01
 2.0649023E+01  1.2000918E+01
 2.0749018E+01  1.1937538E+01
 2.0849014E+01  1.1748143E+01
 2.0949009E+01  1.1860805E+01
 2.1049004E+01  1.1637098E+01
 2.1149000E+01  1.1543175E+01
 2.1248995E+01  1.1473286E+01
 2.1348989E+01  1.1528177E+01
 2.1448986E+01  1.1445818E+01
 2.1548981E+01  1.1360122E+01
 2.1648975E+01  1.1210672E+01
 2.1748972E+01  1.1293256E+01
 2.1848967E+01  1.1147238E+01
 2.1948961E+01  1.1100566E+01
 2.2048958E+01  1.0992841E+01
 2.2148952E+01  1.1083509E+01
 2.2248947E+01  1.0944017E+01
 2.2348944E+01  1.0880875E+01
 2.2448938E+01  1.1015564E+01
 2.2548933E+01  1.0938021E+01
 2.2648930E+01  1.0946594E+01
 2.2748924E+01  1.0970749E+01
 2.2848919E+01  1.0818267E+01
 2.2948915E+01  1.0701738E+01
 2.3048910E+01  1.0670764E+01
 2.3148905E+01  1.0654878E+01
 2.3248899E+01  1.0651555E+01
 2.3348896E+01  1.0473584E+01
 2.3448891E+01  1.0515732E+01
 2.3548885E+01  1.0553129E+01
 2.3648882E+01  1.0541941E+01
 2.3748877E+01  1.0534937E+01
 2.3848871E+01  1.0473413E+01
 2.3948868E+01  1.0433681E+01
 2.4048862E+01  1.0480657E+01
 2.4148857E+01  1.0418360E+01
 2.4248854E+01  1.0467897E+01
 2.4348848E+01  1.0380389E+01
 2.4448843E+01  1.0329303E+01
 2.4548840E+01  1.0337256E+01
 2.4648834E+01  1.0277666E+01
 2.4748829E+01  1.0273104E+01
 2.4848825E+01  1.0334537E+01
 2.4948820E+01  1.0198931E+01
 2.5048815E+01  1.0387776E+01
 2.5148811E+01  1.0221396E+01
 2.5248806E+01  1.0282621E+01
 2.5348801E+01  1.0256594E+01
 2.5448797E+01  1.0328707E+01
 2.5548792E+01  1.0346531E+01
 2.5648787E+01  1.0249698E+01
 2.5748781E+01  1.0170201E+01
 2.5848778E+01  1.0197792E+01
 2.5948772E+01  1.0097903E+01
 2.6048767E+01  1.0273306E+01
 2.6148764E+01  1.0195170E+01
 2.6248758E+01  1.0035769E+01
 2.6348753E+01  1.0166538E+01
 2.6448750E+01  1.0136986E+01
 2.6548744E+01  1.0079774E+01
 2.6648739E+01  1.0201589E+01
 2.6748735E+01  1.0269632E+01
 2.6848730E+01  1.0198434E+01
 2.6948725E+01  9.9503222E+00
 2.7048721E+01  1.0039330E+01
 2.7148716E+01  1.0244412E+01
 2.7248711E+01  1.0231523E+01
 2.7348707E+01  1.0212574E+01
 2.7448702E+01  1.0297663E+01
 2.7548697E+01  1.0311782E+01
 2.7648693E+01  1.0358040E+01
 2.7748688E+01  1.0357784E+01
 2.7848682E+01  1.0389406E+01
 2.7948679E+01  1.0310881E+01
 2.8048674E+01  1.0325349E+01
 2.8148668E+01  1.0382164E+01
 2.8248663E+01  1.0408478E+01
 2.8348660E+01  1.0386367E+01
 2.8448654E+01  1.0371695E+01
 2.8548649E+01  1.0506734E+01
 2.8648645E+01  1.0336185E+01
 2.8748640E+01  1.0339756E+01
 2.8848635E+01  1.0654705E+01
 2.8948631E+01  1.0718434E+01
 2.9048626E+01  1.0766777E+01
 2.9148621E+01  1.0779404E+01
 2.9248617E+01  1.0762831E+01
 2.9348612E+01  1.0839293E+01
 2.9448606E+01  1.0866365E+01
 2.9548603E+01  1.0936604E+01
 2.9648598E+01  1.0858792E+01
 2.9748592E+01  1.0907634E+01
 2.9848589E+01  1.1145411E+01
 2.9948584E+01  1.1096186E+01
 3.0048578E+01  1.1159160E+01
 3.0148575E+01  1.1275017E+01
 3.0248569E+01  1.1223126E+01
 3.0348564E+01  1.1390952E+01
 3.0448561E+01  1.1376915E+01
 3.0548555E+01  1.1496707E+01
 3.0648550E+01  1.1557756E+01
 3.0748545E+01  1.1635479E+01
 3.0848541E+01  1.1767340E+01
 3.0948536E+01  1.1860678E+01
 3.1048531E+01  1.1953899E+01
 3.1148527E+01  1.1795559E+01
 3.1248522E+01  1.1915228E+01
 3.1348516E+01  1.2032256E+01
 3.1448513E+01  1.2209731E+01
 3.1548508E+01  1.2252280E+01
 3.1648502E+01  1.2308672E+01
 3.1748499E+01  1.2371061E+01
 3.1848494E+01  1.2488690E+01
 3.1948488E+01  1.2715874E+01
 3.2048485E+01  1.2725184E+01
 3.2148479E+01  1.2911582E+01
 3.2248474E+01  1.2946801E+01
 3.2348469E+01  1.2939387E+01
 3.2448463E+01  1.3062178E+01
 3.2548462E+01  1.3257915E+01
 3.2648457E+01  1.3510905E+01
 3.2748451E+01  1.3589869E+01
 3.2848446E+01  1.3672166E+01
 3.2948441E+01  1.3809792E+01
 3.3048435E+01  1.3806142E+01
 3.3148434E+01  1.3939683E+01
 3.3248428E+01  1.4105782E+01
 3.3348423E+01  1.4259212E+01
 3.3448418E+01  1.4322184E+01
 3.3548412E+01  1.4495521E+01
 3.3648407E+01  1.4595295E+01
 3.3748405E+01  1.4588717E+01
 3.3848400E+01  1.4768920E+01
 3.3948395E+01  1.4854633E+01
 3.4048389E+01  1.4898952E+01
 3.4148384E+01  1.5009928E+01
 3.4248379E+01  1.5069439E+01
 3.4348377E+01  1.5155742E+01
 3.4448372E+01  1.5268153E+01
 3.4548367E+01  1.5260946E+01
 3.4648361E+01  1.5356787E+01
 3.4748356E+01  1.5256974E+01
 3.4848351E+01  1.5335035E+01
 3.4948345E+01  1.5450422E+01
 3.5048344E+01  1.5430029E+01
 3.5148338E+01  1.5447780E+01
 3.5248333E+01  1.5504254E+01
 3.5348328E+01  1.5552173E+01
 3.5448322E+01  1.5410418E+01
 3.5548317E+01  1.5388537E+01
 3.5648315E+01  1.5271618E+01
 3.5748310E+01  1.5289416E+01
 3.5848305E+01  1.5275043E+01
 3.5948299E+01  1.5062383E+01
 3.6048294E+01  1.5058144E+01
 3.6148289E+01  1.5035163E+01
 3.6248287E+01  1.4972528E+01
 3.6348282E+01  1.4862878E+01
 3.6448277E+01  1.4743064E+01
 3.6548271E+01  1.4731157E+01
 3.6648266E+01  1.4611870E+01
 3.6748260E+01  1.4597529E+01
 3.6848259E+01  1.4418432E+01
 3.6948254E+01  1.4317433E+01
 3.7048248E+01  1.4154743E+01
 3.7148243E+01  1.4052994E+01
 3.7248238E+01  1.3946005E+01
 3.7348232E+01  1.3937245E+01
 3.7448227E+01  1.3735595E+01
 3.7548225E+01  1.3684950E+01
 3.7648220E+01  1.3505882E+01
 3.7748215E+01  1.3393343E+01
 3.7848209E+01  1.3227766E+01
 3.7948204E+01  1.3106977E+01
 3.8048199E+01  1.3088134E+01
 3.8148197E+01  1.2977084E+01
 3.8248192E+01  1.2900249E+01
 3.8348186E+01  1.2910921E+01
 3.8448181E+01  1.2849432E+01
 3.8548176E+01  1.2732475E+01
 3.8648170E+01  1.2700830E+01
 3.8748169E+01  1.2592050E+01
 3.8848164E+01  1.2386420E+01
 3.8948158E+01  1.2311033E+01
 3.9048153E+01  1.2295330E+01
 3.9148148E+01  1.2351732E+01
 3.9248142E+01  1.2363333E+01
 3.9348141E+01  1.2231865E+01
 3.9448135E+01  1.2184564E+01
 3.9548130E+01  1.2183085E+01
 3.9648125E+01  1.2090631E+01
 3.9748119E+01  1.2105770E+01
 3.9848114E+01  1.1965883E+01
 3.9948109E+01  1.1961953E+01
 4.0048107E+01  1.2067579E+01
 4.0148102E+01  1.2067179E+01
 4.0248096E+01  1.1939992E+01
 4.0348091E+01  1.2041060E+01
 4.0448086E+01  1.1959400E+01
 4.0548080E+01  1.1931830E+01
 4.0648079E+01  1.1821534E+01
 4.0748074E+01  1.2000353E+01
 4.0848068E+01  1.2040647E+01
 4.0948063E+01  1.2016975E+01
 4.1048058E+01  1.2193086E+01
 4.1148052E+01  1.2315900E+01
 4.1248051E+01  1.2526557E+01
 4.1348045E+01  1.2611224E+01
 4.1448040E+01  1.2748115E+01
 4.1548035E+01  1.2992111E+01
 4.1648029E+01  1.3389376E+01
 4.1748024E+01  1.3673140E+01
 4.1848022E+01  1.4040394E+01
 4.1948017E+01  1.4691480E+01
 4.2048012E+01  1.5303932E+01
 4.2148006E+01  1.6108568E+01
 4.2248001E+01  1.7019592E+01
 4.2347996E+01  1.8141197E+01
 4.2447990E+01  1.9418953E+01
 4.2547989E+01  2.0590153E+01
 4.2647984E+01  2.1599506E+01
 4.2747978E+01  2.2131393E+01
 4.2847973E+01  2.2155571E+01
 4.2947968E+01  2.1668962E+01
 4.3047962E+01  2.0779085E+01
 4.3147961E+01  1.9827871E+01
 4.3247955E+01  1.8815805E+01
 4.3347950E+01  1.8077116E+01
 4.3447945E+01  1.7341599E+01
 4.3547939E+01  1.6523279E+01
 4.3647934E+01  1.6016748E+01
 4.3747932E+01  1.5639003E+01
 4.3847927E+01  1.5403941E+01
 4.3947922E+01  1.5136057E+01
 4.4047916E+01  1.4818348E+01
 4.4147911E+01  1.4714832E+01
 4.4247906E+01  1.4490152E+01
 4.4347904E+01  1.4404093E+01
 4.4447899E+01  1.4471725E+01
 4.4547894E+01  1.4386121E+01
 4.4647888E+01  1.4396047E+01
 4.4747883E+01  1.4464293E+01
 4.4847878E+01  1.4634816E+01
 4.4947872E+01  1.4823576E+01
 4.5047871E+01  1.5129707E+01
 4.5147865E+01  1.5402376E+01
 4.5247860E+01  1.5820603E+01
 4.5347855E+01  1.6173744E+01
 4.5447849E+01  1.6763538E+01
 4.5547844E+01  1.7599993E+01
 4.5647842E+01  1.8485706E+01
 4.5747837E+01  1.9427744E+01
 4.5847832E+01  2.0513023E+01
 4.5947826E+01  2.1786121E+01
 4.6047821E+01  2.3222372E+01
 4.6147816E+01  2.4688711E+01
 4.6247814E+01  2.6003038E+01
 4.6347809E+01  2.7224367E+01
 4.6447803E+01  2.8185928E+01
 4.6547798E+01  2.8791977E+01
 4.6647793E+01  2.9133133E+01
 4.6747787E+01  2.8767702E+01
 4.6847786E+01  2.8008005E+01
 4.6947781E+01  2.6806541E+01
 4.7047775E+01  2.5401716E+01
 4.7147770E+01  2.3957144E+01
 4.7247765E+01  2.2351273E+01
 4.7347759E+01  2.0764288E+01
 4.7447754E+01  1.9533373E+01
 4.7547752E+01  1.8359396E+01
 4.7647747E+01  1.7325077E+01
 4.7747742E+01  1.6439657E+01
 4.7847736E+01  1.5632620E+01
 4.7947731E+01  1.5109841E+01
 4.8047726E+01  1.4465740E+01
 4.8147724E+01  1.4047862E+01
 4.8247719E+01  1.3666615E+01
 4.8347713E+01  1.3308048E+01
 4.8447708E+01  1.3011084E+01
 4.8547703E+01  1.2794660E+01
 4.8647697E+01  1.2577409E+01
 4.8747696E+01  1.2347747E+01
 4.8847691E+01  1.2183477E+01
 4.8947685E+01  1.2016451E+01
 4.9047680E+01  1.1811530E+01
 4.9147675E+01  1.1679591E+01
 4.9247669E+01  1.1542168E+01
 4.9347668E+01  1.1454776E+01
 4.9447662E+01  1.1436726E+01
 4.9547657E+01  1.1253533E+01
 4.9647652E+01  1.1214320E+01
 4.9747646E+01  1.1192764E+01
 4.9847641E+01  1.1090260E+01
 4.9947636E+01  1.1035920E+01
 5.0047634E+01  1.0990538E+01
 5.0147629E+01  1.0881161E+01
 5.0247623E+01  1.0806184E+01
 5.0347618E+01  1.0754266E+01
 5.0447613E+01  1.0810237E+01
 5.0547607E+01  1.0716352E+01
 5.0647606E+01  1.0679340E+01
 5.0747601E+01  1.0708058E+01
 5.0847595E+01  1.0629886E+01
 5.0947590E+01  1.0691667E+01
 5.1047585E+01  1.0591432E+01
 5.1147579E+01  1.0563460E+01
 5.1247578E+01  1.0529759E+01
 5.1347572E+01  1.0579830E+01
 5.1447567E+01  1.0623173E+01
 5.1547562E+01  1.0562532E+01
 5.1647556E+01  1.0490519E+01
 5.1747551E+01  1.0421990E+01
 5.1847549E+01  1.0498048E+01
 5.1947544E+01  1.0545452E+01
 5.2047539E+01  1.0523709E+01
 5.2147533E+01  1.0519901E+01
 5.2247528E+01  1.0520478E+01
 5.2347523E+01  1.0498000E+01
 5.2447521E+01  1.0455427E+01
 5.2547516E+01  1.0436307E+01
 5.2647511E+01  1.0429722E+01
 5.2747505E+01  1.0396857E+01
 5.2847500E+01  1.0445870E+01
 5.2947495E+01  1.0429205E+01
 5.3047489E+01  1.0471918E+01
 5.3147488E+01  1.0463244E+01
 5.3247482E+01  1.0424671E+01
 5.3347477E+01  1.0403619E+01
 5.3447472E+01  1.0445290E+01
 5.3547466E+01  1.0398663E+01
 5.3647461E+01  1.0474461E+01
 5.3747459E+01  1.0574332E+01
 5.3847454E+01  1.0491594E+01
 5.3947449E+01  1.0546915E+01
 5.4047443E+01  1.0536361E+01
 5.4147438E+01  1.0605524E+01
 5.4247433E+01  1.0607907E+01
 5.4347431E+01  1.0679879E+01
 5.4447426E+01  1.0626869E+01
 5.4547421E+01  1.0604617E+01
 5.4647415E+01  1.0750122E+01
 5.4747410E+01  1.0774901E+01
 5.4847404E+01  1.0743729E+01
 5.4947403E+01  1.0755659E+01
 5.5047398E+01  1.0882145E+01
 5.5147392E+01  1.1052794E+01
 5.5247387E+01  1.1060610E+01
 5.5347382E+01  1.1178207E+01
 5.5447376E+01  1.1326829E+01
 5.5547371E+01  1.1451648E+01
 5.5647369E+01  1.1584967E+01
 5.5747364E+01  1.1822691E+01
 5.5847359E+01  1.2115334E+01
 5.5947353E+01  1.2415906E+01
 5.6047348E+01  1.2889834E+01
 5.6147343E+01  1.3323813E+01
 5.6247341E+01  1.3939570E+01
 5.6347336E+01  1.4807818E+01
 5.6447330E+01  1.6059694E+01
 5.6547325E+01  1.7919973E+01
 5.6647320E+01  2.1194359E+01
 5.6747314E+01  2.7539705E+01
 5.6847313E+01  4.1404552E+01
 5.6947308E+01  6.7455292E+01
 5.7047302E+01  9.9772972E+01
 5.7147297E+01  1.1656862E+02
 5.7247292E+01  1.0217851E+02
 5.7347286E+01  6.9962212E+01
 5.7447285E+01  4.4093616E+01
 5.7547279E+01  3.0324469E+01
 5.7647274E+01  2.3661755E+01
 5.7747269E+01  2.0074362E+01
 5.7847263E+01  1.7638443E+01
 5.7947258E+01  1.6198336E+01
 5.8047253E+01  1.4995964E+01
 5.8147251E+01  1.4186203E+01
 5.8247246E+01  1.3550515E+01
 5.8347240E+01  1.2976306E+01
 5.8447235E+01  1.2479601E+01
 5.8547230E+01  1.2038206E+01
 5.8647224E+01  1.1759849E+01
 5.8747223E+01  1.1456580E+01
 5.8847218E+01  1.1105062E+01
 5.8947212E+01  1.0954667E+01
 5.9047207E+01  1.0774373E+01
 5.9147202E+01  1.0636657E+01
 5.9247196E+01  1.0550307E+01
 5.9347195E+01  1.0392249E+01
 5.9447189E+01  1.0304520E+01
 5.9547184E+01  1.0169023E+01
 5.9647179E+01  1.0154019E+01
 5.9747173E+01  1.0133152E+01
 5.9847168E+01  1.0325429E+01
 5.9947166E+01  1.0597379E+01
 6.0047161E+01  1.1074443E+01
 6.0147156E+01  1.1393092E+01
 6.0247150E+01  1.0993283E+01
 6.0347145E+01  1.0249837E+01
 6.0447140E+01  1.0005576E+01
 6.0547134E+01  9.8476048E+00
 6.0647133E+01  9.7992134E+00
 6.0747128E+01  9.7086744E+00
 6.0847122E+01  9.7231083E+00
 6.0947117E+01  9.6695738E+00
 6.1047112E+01  9.6632242E+00
 6.1147106E+01  9.6572123E+00
 6.1247105E+01  9.6674967E+00
 6.1347099E+01  9.6216154E+00
 6.1447094E+01  9.5527687E+00
 6.1547089E+01  9.5755091E+00
 6.1647083E+01  9.5212688E+00
 6.1747078E+01  9.4920101E+00
 6.1847076E+01  9.5389214E+00
 6.1947071E+01  9.5493364E+00
 6.2047066E+01  9.4598475E+00
 6.2147060E+01  9.4371805E+00
 6.2247055E+01  9.4871235E+00
 6.2347050E+01  9.5783834E+00
 6.2447048E+01  9.7551527E+00
 6.2547043E+01  9.9922123E+00
 6.2647038E+01  1.0046068E+01
 6.2747032E+01  9.8632307E+00
 6.2847027E+01  9.7719707E+00
 6.2947021E+01  9.6523418E+00
 6.3047016E+01  9.5794535E+00
 6.3147015E+01  9.5999107E+00
 6.3247009E+01  9.5886126E+00
 6.3347004E+01  9.5820179E+00
 6.3446999E+01  9.5681639E+00
 6.3546993E+01  9.6088305E+00
 6.3646988E+01  9.5736923E+00
 6.3746986E+01  9.5889082E+00
 6.3846981E+01  9.5946846E+00
 6.3946976E+01  9.5600786E+00
 6.4046974E+01  9.4835882E+00
 6.4146965E+01  9.5343847E+00
 6.4246964E+01  9.5056791E+00
 6.4346954E+01  9.4613123E+00
 6.4446953E+01  9.3894510E+00
 6.4546944E+01  9.3376856E+00
 6.4646942E+01  9.3160639E+00
 6.4746941E+01  9.2395210E+00
 6.4846931E+01  9.2128010E+00
 6.4946930E+01  9.2336988E+00
 6.5046921E+01  9.1896029E+00
 6.5146919E+01  9.2102365E+00
 6.5246918E+01  9.1370802E+00
 6.5346909E+01  9.0935364E+00
 6.5446907E+01  9.0761623E+00
 6.5546898E+01  9.1223402E+00
 6.5646896E+01  9.0841970E+00
 6.5746887E+01  9.1028671E+00
 6.5846886E+01  9.0954065E+00
 6.5946884E+01  9.0878172E+00
 6.6046875E+01  9.0995989E+00
 6.6146873E+01  9.0438919E+00
 6.6246864E+01  9.0278358E+00
 6.6346863E+01  9.0521183E+00
 6.6446854E+01  9.0748091E+00
 6.6546852E+01  9.0096998E+00
 6.6646851E+01  9.1795263E+00
 6.6746841E+01  9.2330322E+00
 6.6846840E+01  9.3986092E+00
 6.6946831E+01  9.5082645E+00
 6.7046829E+01  9.7375221E+00
 6.7146828E+01  9.8901529E+00
 6.7246819E+01  9.9367008E+00
 6.7346817E+01  9.8333883E+00
 6.7446808E+01  9.5775270E+00
 6.7546806E+01  9.3510675E+00
 6.7646797E+01  9.1784124E+00
 6.7746796E+01  9.0892754E+00
 6.7846794E+01  8.9678440E+00
 6.7946785E+01  8.9403543E+00
 6.8046783E+01  8.8495541E+00
 6.8146774E+01  8.7989473E+00
 6.8246773E+01  8.8153591E+00
 6.8346764E+01  8.7654533E+00
 6.8446762E+01  8.7091103E+00
 6.8546761E+01  8.7171316E+00
 6.8646751E+01  8.6513033E+00
 6.8746750E+01  8.7140179E+00
 6.8846741E+01  9.0776806E+00
 6.8946739E+01  1.0252322E+01
 6.9046738E+01  1.2178371E+01
 6.9146729E+01  1.2327232E+01
 6.9246727E+01  1.1057599E+01
 6.9346718E+01  9.1975889E+00
 6.9446716E+01  8.7031975E+00
 6.9546707E+01  8.6223249E+00
 6.9646706E+01  8.6172895E+00
 6.9746704E+01  8.4733677E+00
 6.9846695E+01  8.5187044E+00
 6.9946693E+01  8.5280285E+00
 7.0046684E+01  8.5581923E+00
 7.0146683E+01  8.5913582E+00
 7.0246681E+01  8.5391493E+00
 7.0346672E+01  8.5457506E+00
 7.0446671E+01  8.4739532E+00
 7.0546661E+01  8.5296612E+00
 7.0646660E+01  8.5321512E+00
 7.0746651E+01  8.4861345E+00
 7.0846649E+01  8.4548492E+00
 7.0946648E+01  8.4839602E+00
 7.1046638E+01  8.5480795E+00
 7.1146637E+01  8.5474968E+00
 7.1246628E+01  8.5847692E+00
 7.1346626E+01  8.6253853E+00
 7.1446617E+01  8.6557112E+00
 7.1546616E+01  8.5699329E+00
 7.1646614E+01  8.5361013E+00
 7.1746605E+01  8.6546669E+00
 7.1846603E+01  8.6619196E+00
 7.1946594E+01  8.6664057E+00
 7.2046593E+01  8.6557503E+00
 7.2146591E+01  8.6620245E+00
 7.2246582E+01  8.6912374E+00
 7.2346581E+01  8.7917061E+00
 7.2446571E+01  8.8152275E+00
 7.2546570E+01  8.8292599E+00
 7.2646561E+01  8.8496027E+00
 7.2746559E+01  8.8871651E+00
 7.2846558E+01  8.9324532E+00
 7.2946548E+01  8.9840479E+00
 7.3046547E+01  8.9592028E+00
 7.3146538E+01  9.0500813E+00
 7.3246536E+01  9.1258287E+00
 7.3346527E+01  9.0555420E+00
 7.3446526E+01  9.1591082E+00
 7.3546524E+01  9.2480459E+00
 7.3646515E+01  9.2793016E+00
 7.3746513E+01  9.3820047E+00
 7.3846504E+01  9.3787184E+00
 7.3946503E+01  9.5173140E+00
 7.4046501E+01  9.5368967E+00
 7.4146492E+01  9.6004076E+00
 7.4246490E+01  9.7598057E+00
 7.4346481E+01  9.8908033E+00
 7.4446480E+01  1.0257489E+01
 7.4546471E+01  1.0762208E+01
 7.4646469E+01  1.1273619E+01
 7.4746468E+01  1.1404784E+01
 7.4846458E+01  1.0725988E+01
 7.4946457E+01  1.0560668E+01
 7.5046448E+01  1.0939942E+01
 7.5146446E+01  1.1059707E+01
 7.5246445E+01  1.1235579E+01
 7.5346436E+01  1.0843149E+01
 7.5446434E+01  1.0610199E+01
 7.5546425E+01  1.0622903E+01
 7.5646423E+01  1.0749063E+01
 7.5746414E+01  1.0895869E+01
 7.5846413E+01  1.1124936E+01
 7.5946411E+01  1.1545417E+01
 7.6046402E+01  1.1930998E+01
 7.6146400E+01  1.2312234E+01
 7.6246391E+01  1.2804100E+01
 7.6346390E+01  1.3333903E+01
 7.6446381E+01  1.4006129E+01
 7.6546379E+01  1.4566247E+01
 7.6646378E+01  1.5278290E+01
 7.6746368E+01  1.6138014E+01
 7.6846367E+01  1.7323570E+01
 7.6946358E+01  1.8928511E+01
 7.7046356E+01  2.0991365E+01
 7.7146355E+01  2.3281080E+01
 7.7246346E+01  2.4637028E+01
 7.7346344E+01  2.5457228E+01
 7.7446335E+01  2.4529362E+01
 7.7546333E+01  2.2516741E+01
 7.7646324E+01  2.0102699E+01
 7.7746323E+01  1.7699808E+01
 7.7846321E+01  1.5804095E+01
 7.7946312E+01  1.3839435E+01
 7.8046310E+01  1.2367477E+01
 7.8146301E+01  1.1353436E+01
 7.8246300E+01  1.0593747E+01
 7.8346291E+01  9.7443161E+00
 7.8446289E+01  8.9849148E+00
 7.8546288E+01  8.2627735E+00
 7.8646278E+01  7.4414277E+00
 7.8746277E+01  6.8075576E+00
 7.8846268E+01  6.2539029E+00
 7.8946266E+01  5.6781869E+00
 7.9046265E+01  4.8930964E+00
 7.9146255E+01  4.2618594E+00
 7.9246254E+01  3.7236443E+00
 7.9346245E+01  3.4766192E+00
 7.9446243E+01  3.4088163E+00
 7.9546234E+01  3.3590810E+00
 7.9646233E+01  3.3554659E+00
 7.9746231E+01  3.3452499E+00
 7.9846222E+01  3.3666282E+00
 7.9946220E+01  3.3863068E+00
 8.0046211E+01  3.3803191E+00
 8.0146210E+01  3.3726180E+00
 8.0246208E+01  3.3378351E+00
 8.0346199E+01  3.3382881E+00
 8.0446198E+01  3.3533833E+00
 8.0546188E+01  3.3611155E+00
 8.0646187E+01  3.3596365E+00
 8.0746178E+01  3.2624903E+00
 8.0846176E+01  3.3184521E+00
 8.0946175E+01  3.3413765E+00
 8.1046165E+01  3.3101852E+00
 8.1146164E+01  3.3124039E+00
 8.1246155E+01  3.3365517E+00
 8.1346153E+01  3.3750122E+00
 8.1446144E+01  3.3061740E+00
 8.1546143E+01  3.3346033E+00
 8.1646141E+01  3.3362765E+00
 8.1746132E+01  3.3578937E+00
 8.1846130E+01  3.3525383E+00
 8.1946121E+01  3.3132079E+00
 8.2046120E+01  3.3467488E+00
 8.2146118E+01  3.3610258E+00
 8.2246109E+01  3.3441308E+00
 8.2346107E+01  3.3269002E+00
 8.2446098E+01  3.3514323E+00
 8.2546097E+01  3.3188703E+00
 8.2646088E+01  3.2948494E+00
 8.2746086E+01  3.3268075E+00
 8.2846085E+01  3.3624604E+00
 8.2946075E+01  3.3525078E+00
 8.3046074E+01  3.3409643E+00
 8.3146065E+01  3.3413363E+00
 8.3246063E+01  3.3036180E+00
 8.3346054E+01  3.3283305E+00
 8.3446053E+01  3.3388882E+00
 8.3546051E+01  3.3049271E+00
 8.3646042E+01  3.3647325E+00
 8.3746040E+01  3.3452201E+00
 8.3846031E+01  3.3445616E+00
 8.3946030E+01  3.3337510E+00
 8.4046028E+01  3.3296337E+00
 8.4146019E+01  3.3266952E+00
 8.4246017E+01  3.3536537E+00
 8.4346008E+01  3.2850688E+00
 8.4446007E+01  3.3129370E+00
 8.4545998E+01  3.3132920E+00
 8.4645996E+01  3.2821586E+00
 8.4745995E+01  3.2920175E+00
 8.4845985E+01  3.2318487E+00
 8.4945984E+01  3.2998233E+00
 8.5045975E+01  3.3293388E+00
 8.5145973E+01  3.3739419E+00
 8.5245972E+01  3.3321137E+00
 8.5345963E+01  3.3314781E+00
 8.5445961E+01  3.3226900E+00
 8.5545952E+01  3.3295653E+00
 8.5645950E+01  3.3103452E+00
 8.5745941E+01  3.2913313E+00
 8.5845940E+01  3.3078158E+00
 8.5945938E+01  3.2926064E+00
 8.6045929E+01  3.2845299E+00
 8.6145927E+01  3.2890785E+00
 8.6245918E+01  3.2982168E+00
 8.6345917E+01  3.3165059E+00
 8.6445908E+01  3.2961450E+00
 8.6545906E+01  3.2700317E+00
 8.6645905E+01  3.3108771E+00
 8.6745895E+01  3.3191075E+00
 8.6845894E+01  3.3165088E+00
 8.6945885E+01  3.3864882E+00
 8.7045883E+01  3.3239744E+00
 8.7145882E+01  3.3559098E+00
 8.7245872E+01  3.3235660E+00
 8.7345871E+01  3.3093214E+00
 8.7445862E+01  3.3732872E+00
 8.7545860E+01  3.3797777E+00
 8.7645851E+01  3.3319671E+00
 8.7745850E+01  3.3023014E+00
 8.7845848E+01  3.3222740E+00
 8.7945839E+01  3.2680311E+00
 8.8045837E+01  3.2621381E+00
 8.8145828E+01  3.2786334E+00
 8.8245827E+01  3.2645376E+00
 8.8345818E+01  3.2605839E+00
 8.8445816E+01  3.2891278E+00
 8.8545815E+01  3.2485785E+00
 8.8645805E+01  3.2353897E+00
 8.8745804E+01  3.2888258E+00
 8.8845795E+01  3.2814527E+00
 8.8945793E+01  3.2444925E+00
 8.9045792E+01  3.2917533E+00
 8.9145782E+01  3.3489938E+00
 8.9245781E+01  3.2968140E+00
 8.9345772E+01  3.2671089E+00
 8.9445770E+01  3.2713871E+00
 8.9545761E+01  3.2908354E+00
 8.9645760E+01  3.3182383E+00
 8.9745758E+01  3.2887659E+00
 8.9845749E+01  3.2956550E+00
 8.9945747E+01  3.2694232E+00
 9.0045738E+01  3.3002841E+00
 9.0145737E+01  3.3200252E+00
 9.0245735E+01  3.3669651E+00
 9.0345726E+01  3.2253423E+00
 9.0445724E+01  3.2315125E+00
 9.0545715E+01  3.3028548E+00
 9.0645714E+01  3.2805548E+00
 9.0745705E+01  3.2426615E+00
 9.0845703E+01  3.3382387E+00
 9.0945702E+01  3.2810955E+00
 9.1045692E+01  3.2570627E+00
 9.1145691E+01  3.3037899E+00
 9.1245682E+01  3.3085930E+00
 9.1345680E+01  3.2804582E+00
 9.1445671E+01  3.2306867E+00
 9.1545670E+01  3.2273831E+00
 9.1645668E+01  3.2981868E+00
 9.1745659E+01  3.3120449E+00
 9.1845657E+01  3.3153756E+00
 9.1945648E+01  3.2775671E+00
 9.2045647E+01  3.2565784E+00
 9.2145645E+01  3.2584753E+00
 9.2245636E+01  3.3618641E+00
 9.2345634E+01  3.2385287E+00
 9.2445625E+01  3.2667885E+00
 9.2545624E+01  3.3244352E+00
 9.2645615E+01  3.3236191E+00
 9.2745613E+01  3.2558806E+00
 9.2845612E+01  3.2613211E+00
 9.2945602E+01  3.3208199E+00
 9.3045601E+01  3.3283584E+00
 9.3145592E+01  3.2925844E+00
 9.3245590E+01  3.2418919E+00
 9.3345589E+01  3.2922773E+00
 9.3445580E+01  3.2947273E+00
 9.3545578E+01  3.2600954E+00
 9.3645569E+01  3.2079699E+00
 9.3745567E+01  3.1921895E+00
 9.3845558E+01  3.2587128E+00
 9.3945557E+01  3.2582181E+00
 9.4045555E+01  3.2484417E+00
 9.4145546E+01  3.3246953E+00
 9.4245544E+01  3.2364340E+00
 9.4345535E+01  3.1879282E+00
 9.4445534E+01  3.2447429E+00
 9.4545525E+01  3.2436829E+00
 9.4645523E+01  3.2646232E+00
 9.4745522E+01  3.2242825E+00
 9.4845512E+01  3.2630067E+00
 9.4945511E+01  3.2161171E+00
 9.5045502E+01  3.2136734E+00
 9.5145500E+01  3.3007975E+00
 9.5245499E+01  3.3014235E+00
 9.5345490E+01  3.2839742E+00
 9.5445488E+01  3.2742772E+00
 9.5545479E+01  3.2105591E+00
 9.5645477E+01  3.2026510E+00
 9.5745468E+01  3.2957873E+00
 9.5845467E+01  3.2775025E+00
 9.5945465E+01  3.2335348E+00
 9.6045456E+01  3.1367607E+00
 9.6145454E+01  3.2467973E+00
 9.6245445E+01  3.2222028E+00
 9.6345444E+01  3.2540455E+00
 9.6445435E+01  3.2816777E+00
 9.6545433E+01  3.2747462E+00
 9.6645432E+01  3.2407877E+00
 9.6745422E+01  3.2246292E+00
 9.6845421E+01  3.1590405E+00
 9.6945412E+01  3.3080542E+00
 9.7045410E+01  3.2377143E+00
 9.7145409E+01  3.2410254E+00
 9.7245399E+01  3.1921866E+00
 9.7345398E+01  3.3971152E+00
 9.7445389E+01  3.2433853E+00
 9.7545387E+01  3.2264681E+00
 9.7645378E+01  3.0925643E+00
 9.7745377E+01  3.2217102E+00
 9.7845375E+01  3.2361026E+00
 9.7945366E+01  3.2361851E+00
 9.8045364E+01  3.1711266E+00
 9.8145355E+01  3.2837005E+00
 9.8245354E+01  3.2925978E+00
 9.8345352E+01  3.2564847E+00
 9.8445343E+01  3.3788190E+00
 9.8545341E+01  3.2685280E+00
 9.8645332E+01  3.1655326E+00
 9.8745331E+01  3.2827737E+00
 9.8845322E+01  3.2453492E+00
 9.8945320E+01  3.1614299E+00
 9.9045319E+01  3.1456027E+00
 9.9145309E+01  3.2412016E+00
 9.9245308E+01  3.2651966E+00
 9.9345299E+01  3.3634584E+00
 9.9445297E+01  3.3159397E+00
 9.9545288E+01  3.2717850E+00
 9.9645287E+01  3.2756898E+00
 9.9745285E+01  3.1932909E+00
 9.9845276E+01  3.1605144E+00
 9.9945274E+01  3.2209351E+00
 1.0004527E+02  3.1827641E+00
 1.0014526E+02  3.2110512E+00
 1.0024526E+02  3.2142100E+00
 1.0034525E+02  3.1551135E+00
 1.0044525E+02  3.2701652E+00
 1.0054524E+02  3.2760923E+00
 1.0064524E+02  3.2694767E+00
 1.0074523E+02  3.2158334E+00
 1.0084523E+02  3.0920386E+00
 1.0094523E+02  3.1588376E+00
 1.0104522E+02  3.2747791E+00
 1.0114522E+02  3.2605069E+00
 1.0124521E+02  3.1058421E+00
 1.0134521E+02  3.1243796E+00
 1.0144520E+02  3.1690443E+00
 1.0154520E+02  3.2264469E+00
 1.0164520E+02  3.1969771E+00
 1.0174519E+02  3.2814152E+00
 1.0184518E+02  3.1713548E+00
 1.0194518E+02  3.2491786E+00
 1.0204517E+02  3.2707283E+00
 1.0214517E+02  3.2069256E+00
 1.0224516E+02  3.1007934E+00
 1.0234516E+02  3.3175347E+00
 1.0244515E+02  3.1876657E+00
 1.0254515E+02  3.2861931E+00
 1.0264514E+02  3.2072463E+00
 1.0274514E+02  3.2218401E+00
 1.0284514E+02  3.1913233E+00
 1.0294513E+02  3.2834852E+00
 1.0304513E+02  3.1985309E+00
 1.0314512E+02  3.1185870E+00
 1.0324512E+02  3.2539775E+00
 1.0334512E+02  3.1903763E+00
 1.0344511E+02  3.1292138E+00
 1.0354510E+02  3.1463728E+00
 1.0364510E+02  3.1691196E+00
 1.0374509E+02  3.2251308E+00
 1.0384509E+02  3.1824362E+00
 1.0394508E+02  3.0907929E+00
 1.0404508E+02  3.2178051E+00
 1.0414507E+02  3.3402112E+00
 1.0424507E+02  3.1987400E+00
 1.0434506E+02  3.2390976E+00
 1.0444506E+02  3.1600487E+00
 1.0454505E+02  3.2626665E+00
 1.0464505E+02  3.2440803E+00
 1.0474505E+02  3.2258317E+00
 1.0484504E+02  3.0333254E+00
 1.0494504E+02  3.0250108E+00
 1.0504503E+02  3.0633771E+00
 1.0514503E+02  3.2501924E+00
 1.0524503E+02  3.2432611E+00
 1.0534502E+02  3.0712905E+00
 1.0544501E+02  3.2204039E+00
 1.0554501E+02  3.2336659E+00
 1.0564500E+02  3.2103903E+00
 1.0574500E+02  3.0327377E+00
 1.0584499E+02  3.0938396E+00
 1.0594499E+02  3.1374619E+00
 1.0604498E+02  3.1247194E+00
 1.0614498E+02  3.0122170E+00
 1.0624497E+02  3.1115367E+00
 1.0634497E+02  3.0518303E+00
 1.0644496E+02  3.0847919E+00
 1.0654496E+02  3.1206410E+00
 1.0664496E+02  3.1381967E+00
 1.0674495E+02  3.0045869E+00
 1.0684495E+02  3.0000002E+00
 1.0694494E+02  3.0700033E+00
 1.0704494E+02  3.0938988E+00
 1.0714494E+02  3.1246219E+00
 1.0724493E+02  3.1671591E+00
 1.0734492E+02  3.0501416E+00
 1.0744492E+02  3.4573550E+00
 1.0754491E+02  3.1620808E+00
 1.0764491E+02  3.1000090E+00
 1.0774490E+02  3.0555468E+00
 1.0784490E+02  2.9999998E+00
 1.0794489E+02  3.0000005E+00
 1.0804489E+02  3.1461492E+00
 1.0814488E+02  3.2475443E+00
 1.0824488E+02  3.5352125E+00
 1.0834488E+02  3.1818328E+00
 1.0844487E+02  3.0000000E+00
 1.0854487E+02  3.3611350E+00
 1.0864486E+02  3.2080300E+00
 1.0874486E+02  3.0000002E+00
 1.0884485E+02  3.0000002E+00
 1.0894485E+02  2.9999998E+00
 1.0904485E+02  2.9999998E+00
 1.0914484E+02  2.9999998E+00
 1.0924483E+02  3.1504655E+00
 1.0934483E+02  3.0794277E+00
 1.0944482E+02  3.0000000E+00
 1.0954482E+02  3.0000000E+00
 1.0964481E+02  2.9999998E+00
 1.0974481E+02  3.0000000E+00
 1.0984480E+02  3.0000000E+00
 1.0994480E+02  2.9999995E+00
 1.1004479E+02  3.0000002E+00
 1.1014479E+02  2.9999998E+00
 1.1024479E+02  3.0000000E+00
 1.1034478E+02  3.0000000E+00
 1.1044478E+02  3.0000000E+00
 1.1054477E+02  3.0000000E+00
 1.1064477E+02  2.9999998E+00
 1.1074476E+02  3.0000000E+00
 1.1084476E+02  2.9999998E+00
 1.1094476E+02  3.0000000E+00
 1.1104475E+02  3.0890310E+00
 1.1114474E+02  3.2792199E+00
 1.1124474E+02  3.5028391E+00
 1.1134473E+02  3.6958716E+00
 1.1144473E+02  3.2691634E+00
 1.1154472E+02  3.0604084E+00
 1.1164472E+02  0.0000000E+00
 1.1174471E+02  3.3002841E+00
 1.1184471E+02  3.2059941E+00
 1.1194470E+02  2.9999998E+00
 1.1204470E+02  3.0000000E+00
 1.1214470E+02  0.0000000E+00
 1.1224469E+02  3.0000002E+00
 1.1234469E+02  2.9999998E+00
 1.1244468E+02  0.0000000E+00
 1.1254468E+02  3.5451958E+00
 1.1264467E+02  3.5993123E+00
 1.1274467E+02  4.0000000E+00
 1.1284467E+02  0.0000000E+00
 1.1294466E+02  0.0000000E+00
 1.1304465E+02  0.0000000E+00
 1.1314465E+02  0.0000000E+00
 1.1324464E+02  3.0000000E+00
 1.1334464E+02  3.0000000E+00
 1.1344463E+02  0.0000000E+00
 1.1354463E+02  0.0000000E+00
 1.1364462E+02  3.0000000E+00
 1.1374462E+02  3.0000000E+00
 1.1384461E+02  3.0000000E+00
 1.1394461E+02  0.0000000E+00
 1.1404461E+02  0.0000000E+00
 1.1414460E+02  0.0000000E+00
 1.1424460E+02  0.0000000E+00
 1.1434459E+02  0.0000000E+00
 1.1444459E+02  0.0000000E+00
 1.1454458E+02  0.0000000E+00
 1.1464458E+02  0.0000000E+00
 1.1474458E+02  0.0000000E+00
 1.1484457E+02  0.0000000E+00
